# Temperatura_=_-0.672000000000001
# Concentracion g/m^3_=_19900.0
# C_Vs_to_Am_M_A/Vsm_=_254322799225.57578
# pendiente_HvsI_1/m_=_3716.3
# ordenada_HvsI_A/m_=_1297.0
# frecuencia_Hz_=_136622.94304158082
# Promedio de 275 ciclos

Tiempo_(s)	Campo_(V.s)	Magnetizacion_(V.s)	Campo_(kA/m)	Magnetizacion_(A/m)
0.000000e+00	-1.082649e-08	-4.996034e-09	-5.704956e+01	-1.269542e+03
1.000000e-08	-1.082643e-08	-4.996184e-09	-5.704923e+01	-1.269642e+03
2.000000e-08	-1.082570e-08	-4.996639e-09	-5.704540e+01	-1.269802e+03
3.000000e-08	-1.082398e-08	-4.997345e-09	-5.703633e+01	-1.270011e+03
4.000000e-08	-1.082121e-08	-4.998005e-09	-5.702174e+01	-1.270248e+03
5.000000e-08	-1.081765e-08	-4.998254e-09	-5.700295e+01	-1.270483e+03
6.000000e-08	-1.081352e-08	-4.998089e-09	-5.698123e+01	-1.270682e+03
7.000000e-08	-1.080880e-08	-4.997701e-09	-5.695636e+01	-1.270806e+03
8.000000e-08	-1.080335e-08	-4.997128e-09	-5.692763e+01	-1.270822e+03
9.000000e-08	-1.079707e-08	-4.996092e-09	-5.689450e+01	-1.270701e+03
1.000000e-07	-1.078976e-08	-4.993374e-09	-5.685600e+01	-1.270425e+03
1.100000e-07	-1.078114e-08	-4.989295e-09	-5.681061e+01	-1.269989e+03
1.200000e-07	-1.077104e-08	-4.989077e-09	-5.675737e+01	-1.269402e+03
1.300000e-07	-1.075996e-08	-4.993676e-09	-5.669898e+01	-1.268689e+03
1.400000e-07	-1.074861e-08	-4.998267e-09	-5.663919e+01	-1.267889e+03
1.500000e-07	-1.073681e-08	-4.993796e-09	-5.657700e+01	-1.267051e+03
1.600000e-07	-1.072401e-08	-4.984375e-09	-5.650953e+01	-1.266235e+03
1.700000e-07	-1.071040e-08	-4.981638e-09	-5.643785e+01	-1.265500e+03
1.800000e-07	-1.069627e-08	-4.968541e-09	-5.636338e+01	-1.264903e+03
1.900000e-07	-1.068104e-08	-4.952982e-09	-5.628312e+01	-1.264492e+03
2.000000e-07	-1.066459e-08	-4.959723e-09	-5.619641e+01	-1.264305e+03
2.100000e-07	-1.064756e-08	-4.982774e-09	-5.610668e+01	-1.264358e+03
2.200000e-07	-1.063002e-08	-4.999329e-09	-5.601425e+01	-1.264649e+03
2.300000e-07	-1.061157e-08	-4.985930e-09	-5.591707e+01	-1.265157e+03
2.400000e-07	-1.059234e-08	-4.968860e-09	-5.581570e+01	-1.265838e+03
2.500000e-07	-1.057258e-08	-4.952585e-09	-5.571160e+01	-1.266631e+03
2.600000e-07	-1.055212e-08	-4.930015e-09	-5.560377e+01	-1.267466e+03
2.700000e-07	-1.053087e-08	-4.927666e-09	-5.549178e+01	-1.268260e+03
2.800000e-07	-1.050896e-08	-4.942889e-09	-5.537635e+01	-1.268935e+03
2.900000e-07	-1.048626e-08	-4.951770e-09	-5.525671e+01	-1.269414e+03
3.000000e-07	-1.046275e-08	-4.963682e-09	-5.513286e+01	-1.269636e+03
3.100000e-07	-1.043874e-08	-4.993894e-09	-5.500631e+01	-1.269553e+03
3.200000e-07	-1.041405e-08	-5.011225e-09	-5.487622e+01	-1.269140e+03
3.300000e-07	-1.038832e-08	-5.003512e-09	-5.474064e+01	-1.268397e+03
3.400000e-07	-1.036159e-08	-4.995363e-09	-5.459978e+01	-1.267343e+03
3.500000e-07	-1.033408e-08	-4.980716e-09	-5.445483e+01	-1.266022e+03
3.600000e-07	-1.030594e-08	-4.948318e-09	-5.430657e+01	-1.264491e+03
3.700000e-07	-1.027725e-08	-4.929627e-09	-5.415534e+01	-1.262824e+03
3.800000e-07	-1.024784e-08	-4.924595e-09	-5.400039e+01	-1.261098e+03
3.900000e-07	-1.021757e-08	-4.910288e-09	-5.384090e+01	-1.259389e+03
4.000000e-07	-1.018654e-08	-4.908779e-09	-5.367739e+01	-1.257769e+03
4.100000e-07	-1.015490e-08	-4.924326e-09	-5.351064e+01	-1.256294e+03
4.200000e-07	-1.012264e-08	-4.923554e-09	-5.334066e+01	-1.255005e+03
4.300000e-07	-1.008967e-08	-4.924322e-09	-5.316691e+01	-1.253922e+03
4.400000e-07	-1.005575e-08	-4.940494e-09	-5.298819e+01	-1.253044e+03
4.500000e-07	-1.002083e-08	-4.935783e-09	-5.280417e+01	-1.252350e+03
4.600000e-07	-9.985144e-09	-4.922567e-09	-5.261614e+01	-1.251801e+03
4.700000e-07	-9.948880e-09	-4.927165e-09	-5.242504e+01	-1.251346e+03
4.800000e-07	-9.911985e-09	-4.923537e-09	-5.223063e+01	-1.250923e+03
4.900000e-07	-9.874390e-09	-4.910998e-09	-5.203252e+01	-1.250471e+03
5.000000e-07	-9.836070e-09	-4.911236e-09	-5.183060e+01	-1.249929e+03
5.100000e-07	-9.797052e-09	-4.910519e-09	-5.162499e+01	-1.249244e+03
5.200000e-07	-9.757441e-09	-4.901822e-09	-5.141627e+01	-1.248379e+03
5.300000e-07	-9.717254e-09	-4.898413e-09	-5.120450e+01	-1.247307e+03
5.400000e-07	-9.676302e-09	-4.894093e-09	-5.098871e+01	-1.246022e+03
5.500000e-07	-9.634380e-09	-4.883144e-09	-5.076781e+01	-1.244533e+03
5.600000e-07	-9.591493e-09	-4.877030e-09	-5.054182e+01	-1.242861e+03
5.700000e-07	-9.547800e-09	-4.874338e-09	-5.031158e+01	-1.241043e+03
5.800000e-07	-9.503468e-09	-4.867902e-09	-5.007798e+01	-1.239119e+03
5.900000e-07	-9.458566e-09	-4.862128e-09	-4.984137e+01	-1.237135e+03
6.000000e-07	-9.413062e-09	-4.857640e-09	-4.960159e+01	-1.235134e+03
6.100000e-07	-9.366896e-09	-4.850536e-09	-4.935832e+01	-1.233153e+03
6.200000e-07	-9.320074e-09	-4.843182e-09	-4.911159e+01	-1.231221e+03
6.300000e-07	-9.272613e-09	-4.836190e-09	-4.886150e+01	-1.229356e+03
6.400000e-07	-9.224480e-09	-4.828248e-09	-4.860786e+01	-1.227564e+03
6.500000e-07	-9.175563e-09	-4.820920e-09	-4.835010e+01	-1.225837e+03
6.600000e-07	-9.125722e-09	-4.814831e-09	-4.808748e+01	-1.224158e+03
6.700000e-07	-9.074910e-09	-4.808508e-09	-4.781973e+01	-1.222504e+03
6.800000e-07	-9.023206e-09	-4.802055e-09	-4.754727e+01	-1.220844e+03
6.900000e-07	-8.970717e-09	-4.794549e-09	-4.727069e+01	-1.219147e+03
7.000000e-07	-8.917527e-09	-4.785974e-09	-4.699041e+01	-1.217385e+03
7.100000e-07	-8.863680e-09	-4.778031e-09	-4.670667e+01	-1.215533e+03
7.200000e-07	-8.809215e-09	-4.770165e-09	-4.641966e+01	-1.213574e+03
7.300000e-07	-8.754221e-09	-4.761620e-09	-4.612988e+01	-1.211500e+03
7.400000e-07	-8.698752e-09	-4.753530e-09	-4.583758e+01	-1.209312e+03
7.500000e-07	-8.642763e-09	-4.745405e-09	-4.554255e+01	-1.207019e+03
7.600000e-07	-8.586188e-09	-4.736674e-09	-4.524443e+01	-1.204636e+03
7.700000e-07	-8.528918e-09	-4.728396e-09	-4.494265e+01	-1.202185e+03
7.800000e-07	-8.470848e-09	-4.720114e-09	-4.463666e+01	-1.199689e+03
7.900000e-07	-8.412004e-09	-4.710819e-09	-4.432659e+01	-1.197169e+03
8.000000e-07	-8.352480e-09	-4.701270e-09	-4.401293e+01	-1.194646e+03
8.100000e-07	-8.292353e-09	-4.691940e-09	-4.369609e+01	-1.192134e+03
8.200000e-07	-8.231661e-09	-4.682461e-09	-4.337628e+01	-1.189641e+03
8.300000e-07	-8.170399e-09	-4.672791e-09	-4.305346e+01	-1.187168e+03
8.400000e-07	-8.108542e-09	-4.662623e-09	-4.272751e+01	-1.184710e+03
8.500000e-07	-8.046122e-09	-4.652144e-09	-4.239859e+01	-1.182254e+03
8.600000e-07	-7.983203e-09	-4.642108e-09	-4.206704e+01	-1.179786e+03
8.700000e-07	-7.919804e-09	-4.632306e-09	-4.173296e+01	-1.177288e+03
8.800000e-07	-7.855929e-09	-4.621624e-09	-4.139638e+01	-1.174740e+03
8.900000e-07	-7.791558e-09	-4.610277e-09	-4.105718e+01	-1.172126e+03
9.000000e-07	-7.726608e-09	-4.599022e-09	-4.071493e+01	-1.169433e+03
9.100000e-07	-7.660986e-09	-4.588432e-09	-4.036914e+01	-1.166653e+03
9.200000e-07	-7.594675e-09	-4.578250e-09	-4.001972e+01	-1.163783e+03
9.300000e-07	-7.527736e-09	-4.567321e-09	-3.966699e+01	-1.160827e+03
9.400000e-07	-7.460225e-09	-4.555571e-09	-3.931124e+01	-1.157790e+03
9.500000e-07	-7.392185e-09	-4.543629e-09	-3.895271e+01	-1.154686e+03
9.600000e-07	-7.323656e-09	-4.531945e-09	-3.859160e+01	-1.151527e+03
9.700000e-07	-7.254654e-09	-4.520834e-09	-3.822799e+01	-1.148326e+03
9.800000e-07	-7.185163e-09	-4.509297e-09	-3.786182e+01	-1.145096e+03
9.900000e-07	-7.115167e-09	-4.497063e-09	-3.749298e+01	-1.141845e+03
1.000000e-06	-7.044675e-09	-4.484732e-09	-3.712152e+01	-1.138580e+03
1.010000e-06	-6.973732e-09	-4.472240e-09	-3.674769e+01	-1.135300e+03
1.020000e-06	-6.902366e-09	-4.458806e-09	-3.637163e+01	-1.132001e+03
1.030000e-06	-6.830550e-09	-4.444774e-09	-3.599320e+01	-1.128674e+03
1.040000e-06	-6.758217e-09	-4.431099e-09	-3.561205e+01	-1.125306e+03
1.050000e-06	-6.685317e-09	-4.418142e-09	-3.522791e+01	-1.121886e+03
1.060000e-06	-6.611821e-09	-4.405449e-09	-3.484063e+01	-1.118396e+03
1.070000e-06	-6.537712e-09	-4.392233e-09	-3.445012e+01	-1.114825e+03
1.080000e-06	-6.462993e-09	-4.378088e-09	-3.405639e+01	-1.111162e+03
1.090000e-06	-6.387671e-09	-4.362956e-09	-3.365949e+01	-1.107398e+03
1.100000e-06	-6.311783e-09	-4.347367e-09	-3.325961e+01	-1.103531e+03
1.110000e-06	-6.235382e-09	-4.331510e-09	-3.285701e+01	-1.099561e+03
1.120000e-06	-6.158523e-09	-4.315530e-09	-3.245201e+01	-1.095493e+03
1.130000e-06	-6.081228e-09	-4.299798e-09	-3.204471e+01	-1.091334e+03
1.140000e-06	-6.003483e-09	-4.284258e-09	-3.163504e+01	-1.087094e+03
1.150000e-06	-5.925272e-09	-4.268575e-09	-3.122292e+01	-1.082783e+03
1.160000e-06	-5.846588e-09	-4.252396e-09	-3.080830e+01	-1.078410e+03
1.170000e-06	-5.767444e-09	-4.234947e-09	-3.039126e+01	-1.073981e+03
1.180000e-06	-5.687845e-09	-4.216617e-09	-2.997182e+01	-1.069501e+03
1.190000e-06	-5.607770e-09	-4.198349e-09	-2.954987e+01	-1.064970e+03
1.200000e-06	-5.527193e-09	-4.180214e-09	-2.912527e+01	-1.060384e+03
1.210000e-06	-5.446106e-09	-4.162055e-09	-2.869799e+01	-1.055737e+03
1.220000e-06	-5.364564e-09	-4.143783e-09	-2.826831e+01	-1.051020e+03
1.230000e-06	-5.282643e-09	-4.124856e-09	-2.783663e+01	-1.046221e+03
1.240000e-06	-5.200391e-09	-4.105134e-09	-2.740320e+01	-1.041328e+03
1.250000e-06	-5.117837e-09	-4.085040e-09	-2.696819e+01	-1.036332e+03
1.260000e-06	-5.035008e-09	-4.064457e-09	-2.653173e+01	-1.031222e+03
1.270000e-06	-4.951908e-09	-4.042978e-09	-2.609383e+01	-1.025994e+03
1.280000e-06	-4.868524e-09	-4.021356e-09	-2.565445e+01	-1.020644e+03
1.290000e-06	-4.784846e-09	-4.000139e-09	-2.521351e+01	-1.015172e+03
1.300000e-06	-4.700867e-09	-3.978438e-09	-2.477098e+01	-1.009582e+03
1.310000e-06	-4.616590e-09	-3.955576e-09	-2.432688e+01	-1.003880e+03
1.320000e-06	-4.532022e-09	-3.932355e-09	-2.388125e+01	-9.980714e+02
1.330000e-06	-4.447166e-09	-3.909111e-09	-2.343411e+01	-9.921638e+02
1.340000e-06	-4.362013e-09	-3.885487e-09	-2.298540e+01	-9.861623e+02
1.350000e-06	-4.276548e-09	-3.861319e-09	-2.253505e+01	-9.800700e+02
1.360000e-06	-4.190771e-09	-3.836581e-09	-2.208305e+01	-9.738865e+02
1.370000e-06	-4.104704e-09	-3.811538e-09	-2.162953e+01	-9.676079e+02
1.380000e-06	-4.018381e-09	-3.786479e-09	-2.117465e+01	-9.612262e+02
1.390000e-06	-3.931822e-09	-3.761313e-09	-2.071853e+01	-9.547300e+02
1.400000e-06	-3.845041e-09	-3.735007e-09	-2.026124e+01	-9.481051e+02
1.410000e-06	-3.758050e-09	-3.707301e-09	-1.980285e+01	-9.413353e+02
1.420000e-06	-3.670841e-09	-3.679340e-09	-1.934330e+01	-9.344039e+02
1.430000e-06	-3.583402e-09	-3.651470e-09	-1.888254e+01	-9.272949e+02
1.440000e-06	-3.495721e-09	-3.622887e-09	-1.842051e+01	-9.199940e+02
1.450000e-06	-3.407782e-09	-3.593270e-09	-1.795712e+01	-9.124898e+02
1.460000e-06	-3.319557e-09	-3.563170e-09	-1.749222e+01	-9.047742e+02
1.470000e-06	-3.231023e-09	-3.532851e-09	-1.702570e+01	-8.968429e+02
1.480000e-06	-3.142185e-09	-3.501562e-09	-1.655758e+01	-8.886949e+02
1.490000e-06	-3.053058e-09	-3.468839e-09	-1.608793e+01	-8.803321e+02
1.500000e-06	-2.963670e-09	-3.434681e-09	-1.561691e+01	-8.717583e+02
1.510000e-06	-2.874060e-09	-3.399783e-09	-1.514472e+01	-8.629781e+02
1.520000e-06	-2.784253e-09	-3.364570e-09	-1.467149e+01	-8.539957e+02
1.530000e-06	-2.694277e-09	-3.328573e-09	-1.419737e+01	-8.448134e+02
1.540000e-06	-2.604149e-09	-3.291421e-09	-1.372245e+01	-8.354309e+02
1.550000e-06	-2.513865e-09	-3.253248e-09	-1.324671e+01	-8.258443e+02
1.560000e-06	-2.423418e-09	-3.214397e-09	-1.277010e+01	-8.160460e+02
1.570000e-06	-2.332805e-09	-3.174823e-09	-1.229263e+01	-8.060241e+02
1.580000e-06	-2.242010e-09	-3.134278e-09	-1.181419e+01	-7.957632e+02
1.590000e-06	-2.151021e-09	-3.092530e-09	-1.133473e+01	-7.852447e+02
1.600000e-06	-2.059841e-09	-3.049484e-09	-1.085427e+01	-7.744480e+02
1.610000e-06	-1.968456e-09	-3.005465e-09	-1.037272e+01	-7.633511e+02
1.620000e-06	-1.876863e-09	-2.960685e-09	-9.890074e+00	-7.519313e+02
1.630000e-06	-1.785083e-09	-2.914601e-09	-9.406442e+00	-7.401666e+02
1.640000e-06	-1.693134e-09	-2.866456e-09	-8.921926e+00	-7.280354e+02
1.650000e-06	-1.601040e-09	-2.816363e-09	-8.436639e+00	-7.155175e+02
1.660000e-06	-1.508844e-09	-2.764989e-09	-7.950816e+00	-7.025932e+02
1.670000e-06	-1.416576e-09	-2.712519e-09	-7.464613e+00	-6.892431e+02
1.680000e-06	-1.324240e-09	-2.658384e-09	-6.978053e+00	-6.754475e+02
1.690000e-06	-1.231841e-09	-2.601949e-09	-6.491156e+00	-6.611857e+02
1.700000e-06	-1.139372e-09	-2.543236e-09	-6.003893e+00	-6.464346e+02
1.710000e-06	-1.046816e-09	-2.482931e-09	-5.516177e+00	-6.311682e+02
1.720000e-06	-9.541734e-10	-2.421175e-09	-5.027997e+00	-6.153575e+02
1.730000e-06	-8.614468e-10	-2.356951e-09	-4.539378e+00	-5.989697e+02
1.740000e-06	-7.686379e-10	-2.289222e-09	-4.050325e+00	-5.819692e+02
1.750000e-06	-6.757571e-10	-2.218375e-09	-3.560893e+00	-5.643175e+02
1.760000e-06	-5.828203e-10	-2.145756e-09	-3.071166e+00	-5.459754e+02
1.770000e-06	-4.898393e-10	-2.070638e-09	-2.581206e+00	-5.269038e+02
1.780000e-06	-3.968312e-10	-1.992148e-09	-2.091103e+00	-5.070658e+02
1.790000e-06	-3.038095e-10	-1.910351e-09	-1.600929e+00	-4.864288e+02
1.800000e-06	-2.107887e-10	-1.825291e-09	-1.110760e+00	-4.649659e+02
1.810000e-06	-1.177891e-10	-1.737304e-09	-6.207023e-01	-4.426584e+02
1.820000e-06	-2.481874e-11	-1.646096e-09	-1.307988e-01	-4.194962e+02
1.830000e-06	6.813302e-11	-1.551028e-09	3.590070e-01	-3.954795e+02
1.840000e-06	1.610725e-10	-1.451843e-09	8.487480e-01	-3.706186e+02
1.850000e-06	2.539999e-10	-1.349354e-09	1.338425e+00	-3.449341e+02
1.860000e-06	3.469202e-10	-1.244550e-09	1.828065e+00	-3.184560e+02
1.870000e-06	4.398387e-10	-1.137308e-09	2.317696e+00	-2.912229e+02
1.880000e-06	5.327521e-10	-1.026963e-09	2.807300e+00	-2.632803e+02
1.890000e-06	6.256554e-10	-9.138939e-10	3.296850e+00	-2.346792e+02
1.900000e-06	7.185416e-10	-7.987726e-10	3.786310e+00	-2.054744e+02
1.910000e-06	8.113939e-10	-6.818733e-10	4.275593e+00	-1.757234e+02
1.920000e-06	9.041909e-10	-5.628723e-10	4.764583e+00	-1.454848e+02
1.930000e-06	9.969123e-10	-4.414718e-10	5.253176e+00	-1.148175e+02
1.940000e-06	1.089548e-09	-3.179156e-10	5.741316e+00	-8.378050e+01
1.950000e-06	1.182075e-09	-1.934901e-10	6.228884e+00	-5.243218e+01
1.960000e-06	1.274474e-09	-6.936455e-11	6.715778e+00	-2.083087e+01
1.970000e-06	1.366745e-09	5.473010e-11	7.202000e+00	1.096507e+01
1.980000e-06	1.458898e-09	1.793103e-10	7.687593e+00	4.289671e+01
1.990000e-06	1.550952e-09	3.046974e-10	8.172667e+00	7.490425e+01
2.000000e-06	1.642909e-09	4.307321e-10	8.657232e+00	1.069267e+02
2.010000e-06	1.734759e-09	5.573973e-10	9.141233e+00	1.389017e+02
2.020000e-06	1.826492e-09	6.841908e-10	9.624617e+00	1.707661e+02
2.030000e-06	1.918094e-09	8.100572e-10	1.010731e+01	2.024561e+02
2.040000e-06	2.009546e-09	9.343783e-10	1.058921e+01	2.339083e+02
2.050000e-06	2.100820e-09	1.056456e-09	1.107017e+01	2.650605e+02
2.060000e-06	2.191900e-09	1.176095e-09	1.155011e+01	2.958529e+02
2.070000e-06	2.282770e-09	1.294038e-09	1.202894e+01	3.262295e+02
2.080000e-06	2.373421e-09	1.411010e-09	1.250662e+01	3.561383e+02
2.090000e-06	2.463854e-09	1.526781e-09	1.298315e+01	3.855328e+02
2.100000e-06	2.554080e-09	1.640398e-09	1.345858e+01	4.143720e+02
2.110000e-06	2.644107e-09	1.751304e-09	1.393297e+01	4.426205e+02
2.120000e-06	2.733939e-09	1.859204e-09	1.440633e+01	4.702480e+02
2.130000e-06	2.823584e-09	1.964345e-09	1.487871e+01	4.972289e+02
2.140000e-06	2.913046e-09	2.066914e-09	1.535012e+01	5.235408e+02
2.150000e-06	3.002316e-09	2.166909e-09	1.582052e+01	5.491639e+02
2.160000e-06	3.091380e-09	2.264519e-09	1.628983e+01	5.740797e+02
2.170000e-06	3.180201e-09	2.359848e-09	1.675787e+01	5.982701e+02
2.180000e-06	3.268754e-09	2.452766e-09	1.722449e+01	6.217166e+02
2.190000e-06	3.357022e-09	2.542760e-09	1.768961e+01	6.444002e+02
2.200000e-06	3.444993e-09	2.629328e-09	1.815318e+01	6.663015e+02
2.210000e-06	3.532674e-09	2.712405e-09	1.861520e+01	6.874017e+02
2.220000e-06	3.620077e-09	2.791558e-09	1.907577e+01	7.076832e+02
2.230000e-06	3.707217e-09	2.866492e-09	1.953495e+01	7.271314e+02
2.240000e-06	3.794106e-09	2.937933e-09	1.999281e+01	7.457363e+02
2.250000e-06	3.880744e-09	3.006211e-09	2.044935e+01	7.634939e+02
2.260000e-06	3.967133e-09	3.071500e-09	2.090457e+01	7.804079e+02
2.270000e-06	4.053274e-09	3.133913e-09	2.135848e+01	7.964908e+02
2.280000e-06	4.139169e-09	3.193268e-09	2.181110e+01	8.117642e+02
2.290000e-06	4.224814e-09	3.249442e-09	2.226241e+01	8.262592e+02
2.300000e-06	4.310202e-09	3.302914e-09	2.271235e+01	8.400153e+02
2.310000e-06	4.395330e-09	3.354181e-09	2.316093e+01	8.530793e+02
2.320000e-06	4.480195e-09	3.403136e-09	2.360812e+01	8.655035e+02
2.330000e-06	4.564770e-09	3.449777e-09	2.405379e+01	8.773431e+02
2.340000e-06	4.649026e-09	3.494466e-09	2.449778e+01	8.886540e+02
2.350000e-06	4.732938e-09	3.537155e-09	2.493995e+01	8.994897e+02
2.360000e-06	4.816494e-09	3.577948e-09	2.538025e+01	9.098996e+02
2.370000e-06	4.899694e-09	3.617306e-09	2.581866e+01	9.199266e+02
2.380000e-06	4.982551e-09	3.655125e-09	2.625528e+01	9.296060e+02
2.390000e-06	5.065077e-09	3.691651e-09	2.669014e+01	9.389647e+02
2.400000e-06	5.147279e-09	3.727271e-09	2.712330e+01	9.480211e+02
2.410000e-06	5.229159e-09	3.761781e-09	2.755476e+01	9.567864e+02
2.420000e-06	5.310683e-09	3.794713e-09	2.798435e+01	9.652654e+02
2.430000e-06	5.391818e-09	3.825804e-09	2.841188e+01	9.734588e+02
2.440000e-06	5.472536e-09	3.855694e-09	2.883722e+01	9.813648e+02
2.450000e-06	5.552816e-09	3.884557e-09	2.926025e+01	9.889820e+02
2.460000e-06	5.632662e-09	3.912446e-09	2.968099e+01	9.963107e+02
2.470000e-06	5.712075e-09	3.939843e-09	3.009945e+01	1.003355e+03
2.480000e-06	5.791028e-09	3.966488e-09	3.051549e+01	1.010122e+03
2.490000e-06	5.869503e-09	3.992304e-09	3.092901e+01	1.016627e+03
2.500000e-06	5.947495e-09	4.017898e-09	3.133998e+01	1.022887e+03
2.510000e-06	6.025027e-09	4.043120e-09	3.174854e+01	1.028925e+03
2.520000e-06	6.102128e-09	4.066558e-09	3.215481e+01	1.034764e+03
2.530000e-06	6.178808e-09	4.088392e-09	3.255887e+01	1.040431e+03
2.540000e-06	6.255042e-09	4.109966e-09	3.296059e+01	1.045949e+03
2.550000e-06	6.330780e-09	4.131255e-09	3.335968e+01	1.051341e+03
2.560000e-06	6.405978e-09	4.152516e-09	3.375593e+01	1.056623e+03
2.570000e-06	6.480619e-09	4.174101e-09	3.414924e+01	1.061809e+03
2.580000e-06	6.554700e-09	4.194984e-09	3.453960e+01	1.066903e+03
2.590000e-06	6.628227e-09	4.214702e-09	3.492705e+01	1.071908e+03
2.600000e-06	6.701194e-09	4.233672e-09	3.531154e+01	1.076817e+03
2.610000e-06	6.773583e-09	4.251675e-09	3.569299e+01	1.081622e+03
2.620000e-06	6.845413e-09	4.268810e-09	3.607149e+01	1.086313e+03
2.630000e-06	6.916743e-09	4.285778e-09	3.644736e+01	1.090879e+03
2.640000e-06	6.987608e-09	4.302409e-09	3.682078e+01	1.095307e+03
2.650000e-06	7.058000e-09	4.319151e-09	3.719171e+01	1.099593e+03
2.660000e-06	7.127897e-09	4.336407e-09	3.756003e+01	1.103730e+03
2.670000e-06	7.197299e-09	4.352806e-09	3.792574e+01	1.107722e+03
2.680000e-06	7.266244e-09	4.367726e-09	3.828904e+01	1.111574e+03
2.690000e-06	7.334753e-09	4.381960e-09	3.865004e+01	1.115297e+03
2.700000e-06	7.402799e-09	4.395908e-09	3.900861e+01	1.118904e+03
2.710000e-06	7.470326e-09	4.409420e-09	3.936444e+01	1.122413e+03
2.720000e-06	7.537270e-09	4.423003e-09	3.971720e+01	1.125841e+03
2.730000e-06	7.603571e-09	4.436843e-09	4.006657e+01	1.129204e+03
2.740000e-06	7.669205e-09	4.450146e-09	4.041241e+01	1.132515e+03
2.750000e-06	7.734183e-09	4.462994e-09	4.075481e+01	1.135786e+03
2.760000e-06	7.798535e-09	4.475671e-09	4.109391e+01	1.139022e+03
2.770000e-06	7.862306e-09	4.487886e-09	4.142995e+01	1.142223e+03
2.780000e-06	7.925555e-09	4.499837e-09	4.176324e+01	1.145387e+03
2.790000e-06	7.988326e-09	4.511741e-09	4.209401e+01	1.148506e+03
2.800000e-06	8.050603e-09	4.523505e-09	4.242218e+01	1.151571e+03
2.810000e-06	8.112353e-09	4.534825e-09	4.274756e+01	1.154571e+03
2.820000e-06	8.173584e-09	4.545713e-09	4.307022e+01	1.157496e+03
2.830000e-06	8.234333e-09	4.556189e-09	4.339033e+01	1.160337e+03
2.840000e-06	8.294599e-09	4.566796e-09	4.370790e+01	1.163091e+03
2.850000e-06	8.354322e-09	4.578182e-09	4.402261e+01	1.165756e+03
2.860000e-06	8.413400e-09	4.589136e-09	4.433392e+01	1.168336e+03
2.870000e-06	8.471734e-09	4.599263e-09	4.464130e+01	1.170838e+03
2.880000e-06	8.529283e-09	4.609161e-09	4.494455e+01	1.173276e+03
2.890000e-06	8.586072e-09	4.618654e-09	4.524379e+01	1.175661e+03
2.900000e-06	8.642174e-09	4.627552e-09	4.553942e+01	1.178010e+03
