# Temperatura_=_-0.2217228464419469
# Concentracion g/m^3_=_19900.0
# C_Vs_to_Am_M_A/Vsm_=_254322799225.57578
# pendiente_HvsI_1/m_=_3716.3
# ordenada_HvsI_A/m_=_1297.0
# frecuencia_Hz_=_136626.05859831686
# Promedio de 267 ciclos

Tiempo_(s)	Campo_(V.s)	Magnetizacion_(V.s)	Campo_(kA/m)	Magnetizacion_(A/m)
0.000000e+00	-1.082743e-08	-5.467550e-09	-5.704622e+01	-1.390969e+03
1.000000e-08	-1.082735e-08	-5.468596e-09	-5.704579e+01	-1.390975e+03
2.000000e-08	-1.082663e-08	-5.468743e-09	-5.704197e+01	-1.390887e+03
3.000000e-08	-1.082493e-08	-5.467931e-09	-5.703301e+01	-1.390719e+03
4.000000e-08	-1.082217e-08	-5.467548e-09	-5.701848e+01	-1.390491e+03
5.000000e-08	-1.081860e-08	-5.467309e-09	-5.699966e+01	-1.390230e+03
6.000000e-08	-1.081446e-08	-5.466892e-09	-5.697784e+01	-1.389963e+03
7.000000e-08	-1.080972e-08	-5.467498e-09	-5.695290e+01	-1.389720e+03
8.000000e-08	-1.080426e-08	-5.469082e-09	-5.692414e+01	-1.389528e+03
9.000000e-08	-1.079797e-08	-5.468614e-09	-5.689099e+01	-1.389409e+03
1.000000e-07	-1.079066e-08	-5.463020e-09	-5.685248e+01	-1.389378e+03
1.100000e-07	-1.078205e-08	-5.461762e-09	-5.680710e+01	-1.389439e+03
1.200000e-07	-1.077196e-08	-5.468515e-09	-5.675396e+01	-1.389588e+03
1.300000e-07	-1.076091e-08	-5.475401e-09	-5.669570e+01	-1.389811e+03
1.400000e-07	-1.074957e-08	-5.463991e-09	-5.663600e+01	-1.390086e+03
1.500000e-07	-1.073777e-08	-5.447673e-09	-5.657383e+01	-1.390384e+03
1.600000e-07	-1.072497e-08	-5.466249e-09	-5.650636e+01	-1.390672e+03
1.700000e-07	-1.071135e-08	-5.490036e-09	-5.643460e+01	-1.390917e+03
1.800000e-07	-1.069720e-08	-5.478512e-09	-5.636007e+01	-1.391088e+03
1.900000e-07	-1.068199e-08	-5.467685e-09	-5.627991e+01	-1.391162e+03
2.000000e-07	-1.066556e-08	-5.480692e-09	-5.619336e+01	-1.391121e+03
2.100000e-07	-1.064854e-08	-5.465205e-09	-5.610369e+01	-1.390963e+03
2.200000e-07	-1.063100e-08	-5.434233e-09	-5.601129e+01	-1.390691e+03
2.300000e-07	-1.061256e-08	-5.464864e-09	-5.591410e+01	-1.390324e+03
2.400000e-07	-1.059331e-08	-5.507729e-09	-5.581269e+01	-1.389890e+03
2.500000e-07	-1.057354e-08	-5.497902e-09	-5.570852e+01	-1.389422e+03
2.600000e-07	-1.055306e-08	-5.498055e-09	-5.560063e+01	-1.388960e+03
2.700000e-07	-1.053180e-08	-5.516412e-09	-5.548861e+01	-1.388543e+03
2.800000e-07	-1.050988e-08	-5.484230e-09	-5.537311e+01	-1.388207e+03
2.900000e-07	-1.048716e-08	-5.444530e-09	-5.525341e+01	-1.387981e+03
3.000000e-07	-1.046364e-08	-5.452569e-09	-5.512951e+01	-1.387881e+03
3.100000e-07	-1.043961e-08	-5.442028e-09	-5.500291e+01	-1.387914e+03
3.200000e-07	-1.041492e-08	-5.414265e-09	-5.487278e+01	-1.388070e+03
3.300000e-07	-1.038918e-08	-5.442381e-09	-5.473722e+01	-1.388325e+03
3.400000e-07	-1.036245e-08	-5.478564e-09	-5.459639e+01	-1.388643e+03
3.500000e-07	-1.033494e-08	-5.469914e-09	-5.445145e+01	-1.388978e+03
3.600000e-07	-1.030679e-08	-5.483230e-09	-5.430313e+01	-1.389276e+03
3.700000e-07	-1.027807e-08	-5.511439e-09	-5.415179e+01	-1.389481e+03
3.800000e-07	-1.024864e-08	-5.486809e-09	-5.399676e+01	-1.389538e+03
3.900000e-07	-1.021838e-08	-5.467101e-09	-5.383728e+01	-1.389401e+03
4.000000e-07	-1.018734e-08	-5.478054e-09	-5.367379e+01	-1.389030e+03
4.100000e-07	-1.015569e-08	-5.451095e-09	-5.350702e+01	-1.388401e+03
4.200000e-07	-1.012342e-08	-5.425735e-09	-5.333701e+01	-1.387505e+03
4.300000e-07	-1.009044e-08	-5.442720e-09	-5.316323e+01	-1.386349e+03
4.400000e-07	-1.005653e-08	-5.434253e-09	-5.298458e+01	-1.384954e+03
4.500000e-07	-1.002162e-08	-5.412423e-09	-5.280065e+01	-1.383355e+03
4.600000e-07	-9.985935e-09	-5.424053e-09	-5.261264e+01	-1.381598e+03
4.700000e-07	-9.949656e-09	-5.424314e-09	-5.242149e+01	-1.379733e+03
4.800000e-07	-9.912750e-09	-5.407500e-09	-5.222704e+01	-1.377814e+03
4.900000e-07	-9.875147e-09	-5.406587e-09	-5.202892e+01	-1.375892e+03
5.000000e-07	-9.836815e-09	-5.402383e-09	-5.182697e+01	-1.374011e+03
5.100000e-07	-9.797779e-09	-5.391522e-09	-5.162130e+01	-1.372206e+03
5.200000e-07	-9.758148e-09	-5.390134e-09	-5.141250e+01	-1.370498e+03
5.300000e-07	-9.717939e-09	-5.386703e-09	-5.120064e+01	-1.368897e+03
5.400000e-07	-9.676973e-09	-5.377055e-09	-5.098481e+01	-1.367398e+03
5.500000e-07	-9.635045e-09	-5.371620e-09	-5.076391e+01	-1.365983e+03
5.600000e-07	-9.592150e-09	-5.365810e-09	-5.053791e+01	-1.364626e+03
5.700000e-07	-9.548442e-09	-5.358546e-09	-5.030763e+01	-1.363293e+03
5.800000e-07	-9.504094e-09	-5.353095e-09	-5.007397e+01	-1.361947e+03
5.900000e-07	-9.459180e-09	-5.346205e-09	-4.983733e+01	-1.360551e+03
6.000000e-07	-9.413659e-09	-5.338707e-09	-4.959750e+01	-1.359074e+03
6.100000e-07	-9.367471e-09	-5.332986e-09	-4.935415e+01	-1.357489e+03
6.200000e-07	-9.320631e-09	-5.325887e-09	-4.910736e+01	-1.355779e+03
6.300000e-07	-9.273153e-09	-5.318428e-09	-4.885722e+01	-1.353938e+03
6.400000e-07	-9.225003e-09	-5.310915e-09	-4.860353e+01	-1.351969e+03
6.500000e-07	-9.176078e-09	-5.302100e-09	-4.834576e+01	-1.349884e+03
6.600000e-07	-9.126242e-09	-5.294771e-09	-4.808320e+01	-1.347705e+03
6.700000e-07	-9.075434e-09	-5.288970e-09	-4.781551e+01	-1.345454e+03
6.800000e-07	-9.023727e-09	-5.280967e-09	-4.754309e+01	-1.343161e+03
6.900000e-07	-8.971232e-09	-5.272351e-09	-4.726651e+01	-1.340850e+03
7.000000e-07	-8.918028e-09	-5.264555e-09	-4.698619e+01	-1.338543e+03
7.100000e-07	-8.864166e-09	-5.255367e-09	-4.670241e+01	-1.336258e+03
7.200000e-07	-8.809687e-09	-5.246143e-09	-4.641538e+01	-1.334004e+03
7.300000e-07	-8.754673e-09	-5.238078e-09	-4.612553e+01	-1.331781e+03
7.400000e-07	-8.699181e-09	-5.229004e-09	-4.583315e+01	-1.329584e+03
7.500000e-07	-8.643171e-09	-5.219551e-09	-4.553805e+01	-1.327397e+03
7.600000e-07	-8.586573e-09	-5.211850e-09	-4.523986e+01	-1.325203e+03
7.700000e-07	-8.529287e-09	-5.203373e-09	-4.493804e+01	-1.322980e+03
7.800000e-07	-8.471211e-09	-5.192944e-09	-4.463206e+01	-1.320706e+03
7.900000e-07	-8.412357e-09	-5.182752e-09	-4.432198e+01	-1.318359e+03
8.000000e-07	-8.352813e-09	-5.173107e-09	-4.400826e+01	-1.315923e+03
8.100000e-07	-8.292651e-09	-5.163094e-09	-4.369128e+01	-1.313388e+03
8.200000e-07	-8.231930e-09	-5.153291e-09	-4.337136e+01	-1.310749e+03
8.300000e-07	-8.170655e-09	-5.143004e-09	-4.304852e+01	-1.308007e+03
8.400000e-07	-8.108784e-09	-5.132027e-09	-4.272255e+01	-1.305172e+03
8.500000e-07	-8.046339e-09	-5.121245e-09	-4.239354e+01	-1.302257e+03
8.600000e-07	-7.983398e-09	-5.110878e-09	-4.206192e+01	-1.299278e+03
8.700000e-07	-7.919987e-09	-5.099608e-09	-4.172783e+01	-1.296255e+03
8.800000e-07	-7.856094e-09	-5.087614e-09	-4.139120e+01	-1.293204e+03
8.900000e-07	-7.791711e-09	-5.076055e-09	-4.105198e+01	-1.290140e+03
9.000000e-07	-7.726759e-09	-5.064857e-09	-4.070978e+01	-1.287075e+03
9.100000e-07	-7.661132e-09	-5.053142e-09	-4.036401e+01	-1.284012e+03
9.200000e-07	-7.594815e-09	-5.041016e-09	-4.001461e+01	-1.280951e+03
9.300000e-07	-7.527878e-09	-5.028652e-09	-3.966194e+01	-1.277886e+03
9.400000e-07	-7.460359e-09	-5.016308e-09	-3.930621e+01	-1.274805e+03
9.500000e-07	-7.392298e-09	-5.004080e-09	-3.894761e+01	-1.271692e+03
9.600000e-07	-7.323748e-09	-4.991640e-09	-3.858644e+01	-1.268530e+03
9.700000e-07	-7.254730e-09	-4.978741e-09	-3.822281e+01	-1.265302e+03
9.800000e-07	-7.185218e-09	-4.965701e-09	-3.785657e+01	-1.261991e+03
9.900000e-07	-7.115196e-09	-4.952597e-09	-3.748765e+01	-1.258585e+03
1.000000e-06	-7.044687e-09	-4.939125e-09	-3.711616e+01	-1.255074e+03
1.010000e-06	-6.973730e-09	-4.925029e-09	-3.674231e+01	-1.251456e+03
1.020000e-06	-6.902357e-09	-4.910497e-09	-3.636627e+01	-1.247732e+03
1.030000e-06	-6.830539e-09	-4.896024e-09	-3.598788e+01	-1.243908e+03
1.040000e-06	-6.758201e-09	-4.881570e-09	-3.560676e+01	-1.239996e+03
1.050000e-06	-6.685295e-09	-4.866918e-09	-3.522264e+01	-1.236007e+03
1.060000e-06	-6.611793e-09	-4.851991e-09	-3.483538e+01	-1.231955e+03
1.070000e-06	-6.537675e-09	-4.836692e-09	-3.444489e+01	-1.227853e+03
1.080000e-06	-6.462942e-09	-4.821127e-09	-3.405115e+01	-1.223710e+03
1.090000e-06	-6.387611e-09	-4.805329e-09	-3.365426e+01	-1.219533e+03
1.100000e-06	-6.311713e-09	-4.788695e-09	-3.325437e+01	-1.215323e+03
1.110000e-06	-6.235307e-09	-4.771445e-09	-3.285182e+01	-1.211078e+03
1.120000e-06	-6.158443e-09	-4.754096e-09	-3.244684e+01	-1.206791e+03
1.130000e-06	-6.081145e-09	-4.736533e-09	-3.203959e+01	-1.202451e+03
1.140000e-06	-6.003407e-09	-4.718718e-09	-3.163001e+01	-1.198043e+03
1.150000e-06	-5.925198e-09	-4.701165e-09	-3.121795e+01	-1.193552e+03
1.160000e-06	-5.846525e-09	-4.683127e-09	-3.080345e+01	-1.188964e+03
1.170000e-06	-5.767388e-09	-4.664474e-09	-3.038651e+01	-1.184266e+03
1.180000e-06	-5.687795e-09	-4.645572e-09	-2.996717e+01	-1.179448e+03
1.190000e-06	-5.607735e-09	-4.626249e-09	-2.954536e+01	-1.174504e+03
1.200000e-06	-5.527177e-09	-4.606236e-09	-2.912092e+01	-1.169432e+03
1.210000e-06	-5.446110e-09	-4.585817e-09	-2.869381e+01	-1.164234e+03
1.220000e-06	-5.364578e-09	-4.565321e-09	-2.826424e+01	-1.158919e+03
1.230000e-06	-5.282650e-09	-4.544323e-09	-2.783259e+01	-1.153494e+03
1.240000e-06	-5.200388e-09	-4.522607e-09	-2.739917e+01	-1.147971e+03
1.250000e-06	-5.117827e-09	-4.500597e-09	-2.696419e+01	-1.142361e+03
1.260000e-06	-5.034989e-09	-4.478174e-09	-2.652774e+01	-1.136674e+03
1.270000e-06	-4.951882e-09	-4.455281e-09	-2.608988e+01	-1.130916e+03
1.280000e-06	-4.868484e-09	-4.432079e-09	-2.565048e+01	-1.125091e+03
1.290000e-06	-4.784786e-09	-4.408473e-09	-2.520949e+01	-1.119197e+03
1.300000e-06	-4.700794e-09	-4.384191e-09	-2.476697e+01	-1.113230e+03
1.310000e-06	-4.616509e-09	-4.359184e-09	-2.432289e+01	-1.107178e+03
1.320000e-06	-4.531932e-09	-4.334287e-09	-2.387728e+01	-1.101029e+03
1.330000e-06	-4.447063e-09	-4.309625e-09	-2.343013e+01	-1.094766e+03
1.340000e-06	-4.361894e-09	-4.284206e-09	-2.298140e+01	-1.088372e+03
1.350000e-06	-4.276407e-09	-4.257864e-09	-2.253100e+01	-1.081830e+03
1.360000e-06	-4.190604e-09	-4.230972e-09	-2.207893e+01	-1.075125e+03
1.370000e-06	-4.104513e-09	-4.203241e-09	-2.162534e+01	-1.068244e+03
1.380000e-06	-4.018164e-09	-4.175207e-09	-2.117040e+01	-1.061179e+03
1.390000e-06	-3.931582e-09	-4.147033e-09	-2.071423e+01	-1.053923e+03
1.400000e-06	-3.844779e-09	-4.118120e-09	-2.025689e+01	-1.046475e+03
1.410000e-06	-3.757763e-09	-4.088388e-09	-1.979842e+01	-1.038838e+03
1.420000e-06	-3.670536e-09	-4.057976e-09	-1.933885e+01	-1.031016e+03
1.430000e-06	-3.583085e-09	-4.026923e-09	-1.887810e+01	-1.023014e+03
1.440000e-06	-3.495392e-09	-3.995190e-09	-1.841607e+01	-1.014840e+03
1.450000e-06	-3.407433e-09	-3.962460e-09	-1.795264e+01	-1.006498e+03
1.460000e-06	-3.319180e-09	-3.928917e-09	-1.748767e+01	-9.979899e+02
1.470000e-06	-3.230622e-09	-3.894734e-09	-1.702108e+01	-9.893164e+02
1.480000e-06	-3.141762e-09	-3.859894e-09	-1.655291e+01	-9.804729e+02
1.490000e-06	-3.052614e-09	-3.824351e-09	-1.608322e+01	-9.714513e+02
1.500000e-06	-2.963206e-09	-3.787734e-09	-1.561216e+01	-9.622398e+02
1.510000e-06	-2.873577e-09	-3.750122e-09	-1.513994e+01	-9.528235e+02
1.520000e-06	-2.783762e-09	-3.711735e-09	-1.466673e+01	-9.431856e+02
1.530000e-06	-2.693782e-09	-3.672060e-09	-1.419267e+01	-9.333079e+02
1.540000e-06	-2.603655e-09	-3.631354e-09	-1.371782e+01	-9.231723e+02
1.550000e-06	-2.513372e-09	-3.590158e-09	-1.324215e+01	-9.127619e+02
1.560000e-06	-2.422926e-09	-3.548258e-09	-1.276563e+01	-9.020615e+02
1.570000e-06	-2.332311e-09	-3.505566e-09	-1.228821e+01	-8.910584e+02
1.580000e-06	-2.241511e-09	-3.461904e-09	-1.180981e+01	-8.797426e+02
1.590000e-06	-2.150517e-09	-3.416866e-09	-1.133040e+01	-8.681063e+02
1.600000e-06	-2.059321e-09	-3.370135e-09	-1.084992e+01	-8.561432e+02
1.610000e-06	-1.967920e-09	-3.321923e-09	-1.036836e+01	-8.438481e+02
1.620000e-06	-1.876315e-09	-3.272106e-09	-9.885721e+00	-8.312150e+02
1.630000e-06	-1.784519e-09	-3.220590e-09	-9.402076e+00	-8.182366e+02
1.640000e-06	-1.692553e-09	-3.167535e-09	-8.917533e+00	-8.049021e+02
1.650000e-06	-1.600439e-09	-3.112798e-09	-8.432217e+00	-7.911971e+02
1.660000e-06	-1.508220e-09	-3.056772e-09	-7.946345e+00	-7.771018e+02
1.670000e-06	-1.415931e-09	-2.999635e-09	-7.460098e+00	-7.625912e+02
1.680000e-06	-1.323580e-09	-2.940718e-09	-6.973530e+00	-7.476348e+02
1.690000e-06	-1.231165e-09	-2.879453e-09	-6.486622e+00	-7.321970e+02
1.700000e-06	-1.138674e-09	-2.815577e-09	-5.999318e+00	-7.162377e+02
1.710000e-06	-1.046107e-09	-2.749431e-09	-5.511611e+00	-6.997137e+02
1.720000e-06	-9.534531e-10	-2.681244e-09	-5.023445e+00	-6.825798e+02
1.730000e-06	-8.607062e-10	-2.610694e-09	-4.534789e+00	-6.647908e+02
1.740000e-06	-7.678765e-10	-2.537439e-09	-4.045698e+00	-6.463023e+02
1.750000e-06	-6.749720e-10	-2.461410e-09	-3.556212e+00	-6.270729e+02
1.760000e-06	-5.820096e-10	-2.382554e-09	-3.066421e+00	-6.070652e+02
1.770000e-06	-4.890071e-10	-2.300519e-09	-2.576420e+00	-5.862468e+02
1.780000e-06	-3.959757e-10	-2.215046e-09	-2.086265e+00	-5.645912e+02
1.790000e-06	-3.029294e-10	-2.126244e-09	-1.596033e+00	-5.420782e+02
1.800000e-06	-2.098912e-10	-2.034147e-09	-1.105844e+00	-5.186942e+02
1.810000e-06	-1.168784e-10	-1.938623e-09	-6.157876e-01	-4.944321e+02
1.820000e-06	-2.389436e-11	-1.839542e-09	-1.258828e-01	-4.692910e+02
1.830000e-06	6.906734e-11	-1.736584e-09	3.639041e-01	-4.432759e+02
1.840000e-06	1.620169e-10	-1.629581e-09	8.536271e-01	-4.163978e+02
1.850000e-06	2.549592e-10	-1.519252e-09	1.343312e+00	-3.886727e+02
1.860000e-06	3.479007e-10	-1.406026e-09	1.832992e+00	-3.601222e+02
1.870000e-06	4.408411e-10	-1.289619e-09	2.322668e+00	-3.307727e+02
1.880000e-06	5.337713e-10	-1.170062e-09	2.812289e+00	-3.006563e+02
1.890000e-06	6.266907e-10	-1.047865e-09	3.301853e+00	-2.698101e+02
1.900000e-06	7.195962e-10	-9.230533e-10	3.791343e+00	-2.382769e+02
1.910000e-06	8.124722e-10	-7.954278e-10	4.280679e+00	-2.061051e+02
1.920000e-06	9.052964e-10	-6.655270e-10	4.769742e+00	-1.733487e+02
1.930000e-06	9.980404e-10	-5.340297e-10	5.258382e+00	-1.400673e+02
1.940000e-06	1.090679e-09	-4.011364e-10	5.746465e+00	-1.063258e+02
1.950000e-06	1.183195e-09	-2.669336e-10	6.233907e+00	-7.219342e+01
1.960000e-06	1.275583e-09	-1.318931e-10	6.720673e+00	-3.774311e+01
1.970000e-06	1.367851e-09	3.634044e-12	7.206805e+00	-3.050396e+00
1.980000e-06	1.460010e-09	1.398368e-10	7.692359e+00	3.180794e+01
1.990000e-06	1.552067e-09	2.770388e-10	8.177383e+00	6.675525e+01
2.000000e-06	1.644030e-09	4.150561e-10	8.661907e+00	1.017164e+02
2.010000e-06	1.735889e-09	5.531675e-10	9.145883e+00	1.366193e+02
2.020000e-06	1.827624e-09	6.907676e-10	9.629201e+00	1.713955e+02
2.030000e-06	1.919221e-09	8.275819e-10	1.011180e+01	2.059816e+02
2.040000e-06	2.010665e-09	9.632018e-10	1.059359e+01	2.403197e+02
2.050000e-06	2.101937e-09	1.097400e-09	1.107447e+01	2.743570e+02
2.060000e-06	2.193022e-09	1.230373e-09	1.155436e+01	3.080463e+02
2.070000e-06	2.283900e-09	1.361929e-09	1.203317e+01	3.413447e+02
2.080000e-06	2.374565e-09	1.491199e-09	1.251085e+01	3.742133e+02
2.090000e-06	2.465013e-09	1.618047e-09	1.298739e+01	4.066159e+02
2.100000e-06	2.555252e-09	1.742616e-09	1.346282e+01	4.385175e+02
2.110000e-06	2.645289e-09	1.865114e-09	1.393719e+01	4.698838e+02
2.120000e-06	2.735130e-09	1.985412e-09	1.441053e+01	5.006797e+02
2.130000e-06	2.824790e-09	2.102873e-09	1.488292e+01	5.308688e+02
2.140000e-06	2.914272e-09	2.217327e-09	1.535436e+01	5.604130e+02
2.150000e-06	3.003557e-09	2.329215e-09	1.582478e+01	5.892725e+02
2.160000e-06	3.092623e-09	2.439057e-09	1.629404e+01	6.174059e+02
2.170000e-06	3.181456e-09	2.546647e-09	1.676206e+01	6.447714e+02
2.180000e-06	3.270023e-09	2.651386e-09	1.722869e+01	6.713277e+02
2.190000e-06	3.358304e-09	2.752310e-09	1.769382e+01	6.970353e+02
2.200000e-06	3.446296e-09	2.849849e-09	1.815742e+01	7.218581e+02
2.210000e-06	3.533999e-09	2.944594e-09	1.861950e+01	7.457648e+02
2.220000e-06	3.621417e-09	3.035167e-09	1.908008e+01	7.687307e+02
2.230000e-06	3.708571e-09	3.120556e-09	1.953926e+01	7.907385e+02
2.240000e-06	3.795476e-09	3.201737e-09	1.999714e+01	8.117796e+02
2.250000e-06	3.882134e-09	3.279557e-09	2.045372e+01	8.318548e+02
2.260000e-06	3.968547e-09	3.353636e-09	2.090900e+01	8.509741e+02
2.270000e-06	4.054713e-09	3.424147e-09	2.136298e+01	8.691569e+02
2.280000e-06	4.140632e-09	3.491275e-09	2.181566e+01	8.864311e+02
2.290000e-06	4.226296e-09	3.555007e-09	2.226699e+01	9.028323e+02
2.300000e-06	4.311701e-09	3.615888e-09	2.271697e+01	9.184026e+02
2.310000e-06	4.396850e-09	3.673720e-09	2.316559e+01	9.331889e+02
2.320000e-06	4.481731e-09	3.728066e-09	2.361280e+01	9.472413e+02
2.330000e-06	4.566324e-09	3.779461e-09	2.405850e+01	9.606116e+02
2.340000e-06	4.650602e-09	3.828377e-09	2.450254e+01	9.733518e+02
2.350000e-06	4.734537e-09	3.875291e-09	2.494476e+01	9.855124e+02
2.360000e-06	4.818108e-09	3.920643e-09	2.538507e+01	9.971412e+02
2.370000e-06	4.901315e-09	3.964555e-09	2.582346e+01	1.008283e+03
2.380000e-06	4.984182e-09	4.006928e-09	2.626006e+01	1.018976e+03
2.390000e-06	5.066722e-09	4.047563e-09	2.669494e+01	1.029258e+03
2.400000e-06	5.148932e-09	4.086740e-09	2.712808e+01	1.039157e+03
2.410000e-06	5.230807e-09	4.124309e-09	2.755945e+01	1.048701e+03
2.420000e-06	5.312315e-09	4.160006e-09	2.798889e+01	1.057909e+03
2.430000e-06	5.393426e-09	4.194377e-09	2.841624e+01	1.066799e+03
2.440000e-06	5.474119e-09	4.227876e-09	2.884138e+01	1.075385e+03
2.450000e-06	5.554383e-09	4.260276e-09	2.926427e+01	1.083679e+03
2.460000e-06	5.634215e-09	4.291628e-09	2.968488e+01	1.091690e+03
2.470000e-06	5.713618e-09	4.322020e-09	3.010322e+01	1.099428e+03
2.480000e-06	5.792576e-09	4.351177e-09	3.051923e+01	1.106900e+03
2.490000e-06	5.871065e-09	4.379288e-09	3.093275e+01	1.114116e+03
2.500000e-06	5.949071e-09	4.406281e-09	3.134375e+01	1.121084e+03
2.510000e-06	6.026611e-09	4.432253e-09	3.175228e+01	1.127815e+03
2.520000e-06	6.103716e-09	4.457535e-09	3.215852e+01	1.134322e+03
2.530000e-06	6.180396e-09	4.482109e-09	3.256252e+01	1.140615e+03
2.540000e-06	6.256630e-09	4.506091e-09	3.296417e+01	1.146709e+03
2.550000e-06	6.332371e-09	4.529872e-09	3.336323e+01	1.152619e+03
2.560000e-06	6.407568e-09	4.553277e-09	3.375941e+01	1.158357e+03
2.570000e-06	6.482204e-09	4.575816e-09	3.415264e+01	1.163939e+03
2.580000e-06	6.556283e-09	4.597775e-09	3.454293e+01	1.169377e+03
2.590000e-06	6.629807e-09	4.619483e-09	3.493030e+01	1.174684e+03
2.600000e-06	6.702765e-09	4.640491e-09	3.531469e+01	1.179868e+03
2.610000e-06	6.775151e-09	4.660595e-09	3.569607e+01	1.184938e+03
2.620000e-06	6.846989e-09	4.680134e-09	3.607456e+01	1.189900e+03
2.630000e-06	6.918326e-09	4.698851e-09	3.645041e+01	1.194756e+03
2.640000e-06	6.989196e-09	4.716973e-09	3.682381e+01	1.199509e+03
2.650000e-06	7.059591e-09	4.734921e-09	3.719470e+01	1.204156e+03
2.660000e-06	7.129491e-09	4.752510e-09	3.756297e+01	1.208697e+03
2.670000e-06	7.198903e-09	4.769519e-09	3.792868e+01	1.213127e+03
2.680000e-06	7.267866e-09	4.786121e-09	3.829203e+01	1.217443e+03
2.690000e-06	7.336393e-09	4.802350e-09	3.865308e+01	1.221644e+03
2.700000e-06	7.404452e-09	4.818133e-09	3.901166e+01	1.225726e+03
2.710000e-06	7.471984e-09	4.833797e-09	3.936746e+01	1.229691e+03
2.720000e-06	7.538931e-09	4.849071e-09	3.972018e+01	1.233539e+03
2.730000e-06	7.605237e-09	4.863184e-09	4.006952e+01	1.237276e+03
2.740000e-06	7.670871e-09	4.876389e-09	4.041533e+01	1.240905e+03
2.750000e-06	7.735849e-09	4.889604e-09	4.075768e+01	1.244437e+03
2.760000e-06	7.800209e-09	4.902855e-09	4.109677e+01	1.247878e+03
2.770000e-06	7.863995e-09	4.916314e-09	4.143283e+01	1.251241e+03
2.780000e-06	7.927265e-09	4.930077e-09	4.176619e+01	1.254533e+03
2.790000e-06	7.990053e-09	4.943719e-09	4.209699e+01	1.257766e+03
2.800000e-06	8.052337e-09	4.956719e-09	4.242515e+01	1.260947e+03
2.810000e-06	8.114089e-09	4.969072e-09	4.275050e+01	1.264082e+03
2.820000e-06	8.175325e-09	4.980668e-09	4.307313e+01	1.267175e+03
2.830000e-06	8.236086e-09	4.991368e-09	4.339326e+01	1.270228e+03
2.840000e-06	8.296365e-09	5.001705e-09	4.371086e+01	1.273242e+03
2.850000e-06	8.356094e-09	5.012678e-09	4.402555e+01	1.276213e+03
2.860000e-06	8.415171e-09	5.024481e-09	4.433681e+01	1.279137e+03
2.870000e-06	8.473495e-09	5.036227e-09	4.464409e+01	1.282009e+03
2.880000e-06	8.531023e-09	5.047591e-09	4.494719e+01	1.284826e+03
2.890000e-06	8.587797e-09	5.058544e-09	4.524631e+01	1.287581e+03
2.900000e-06	8.643903e-09	5.068821e-09	4.554191e+01	1.290274e+03
